Time (s),Roll (°),Pitch (°),Yaw (°)
0.073323404,0.6870896034567914,-0.15738551186500432,-0.00652333121282329
0.121421633,1.5906905029252059,-0.6778412712184733,-0.01935953681966421
0.169519862,2.894202101380497,-0.9804004615909755,0.3345830274099114
0.217618196,4.194461168356487,-1.1554854685233646,0.537437590933215
0.265716425,5.213323831465679,-1.059464158578498,0.6525425815921625
0.313814654,6.065422495385379,-0.9998908618239105,0.763438974362695
0.361912987,6.809055546785156,-0.667682116399576,0.7794316578330958
0.410011216,7.516692292634188,-0.6849556319449107,0.7825881017615453
0.458109446,8.187221593715954,-0.6413337410798232,0.7996328991983701
0.506207779,8.942587674182281,-0.6730758377054609,0.8587637427361923
0.554306008,9.506582185539115,-0.692915583379776,0.8625514753847431
0.602404237,10.058217854820725,-0.5405257176369234,0.8236220013355406
0.650502571,10.54935910604343,-0.49443645790661683,0.8762295128279624
0.6986008,11.203350715672123,-0.36202277385399484,0.8082607518393103
0.746699029,11.846239442776735,-0.2228701433387293,0.8457172191780838
0.794797362,12.19266400883435,-0.31105175727275103,0.7983704598192785
0.842895591,12.67548913972754,-0.36673975517536933,0.8290931808103054
0.890993821,13.219232038688672,-0.40707622708329666,0.7941618663304493
0.93909205,13.705349623977227,-0.5268667154132988,0.8215177141310678
0.987190383,14.086268440700906,-0.565930923230843,0.802789439963956
1.035288612,14.617166491674745,-0.5730982207769436,0.8520299634388446
1.083386841,15.32984253271327,-0.6530479045736185,0.8137317765113646
1.131485175,15.865242150244736,-0.6232016724132193,0.8358269328814474
1.179583404,16.332969155465932,-0.662128233178154,0.9353601267335212
1.227681633,16.875231768311306,-0.5238497610412044,1.0708767838044158
1.275779862,17.45982484488031,-0.41974012000813554,1.2632094354124876
1.323878196,18.05083009150439,-0.40335217367135545,1.383154567799295
1.371976425,18.645997898362925,-0.25446345039857443,1.4427061432903459
1.420074654,19.16834002449867,-0.28705761189988827,1.411772992422811
1.468172883,19.839375947128158,-0.2370082127902395,1.337070485058854
1.516271216,20.46704671696324,-0.2194874369789987,1.2979304965032084
1.564369446,21.063955710470292,-0.35901383623520894,1.2272261531182422
1.612467675,21.58916846140384,-0.23364265368067122,1.1929261290492759
1.660566008,22.11019090334245,-0.27678734311565956,1.177985596043141
1.708664237,22.520349476447837,-0.2280193908614981,1.1714622789353064
1.756762466,22.949283808459658,-0.17948607950118686,1.1655702502278973
1.804860696,23.387492482393764,-0.34166816107557096,1.153154904154529
1.852959029,23.854697946175744,-0.26536680557606956,1.0498337539156255
1.901057258,24.333909454543157,-0.34292430635416565,0.9702913666673663
1.949155487,24.76453461604776,-0.3170218361307194,0.8928532783770937
1.997253716,25.191396413972193,-0.3238633253390871,0.9566134466031658
2.04535205,25.599819367636435,-0.3862163998531574,1.0033289184465026
2.093450279,26.032975086265218,-0.35667106087096173,1.0828713056947614
2.141548508,26.39508824582088,-0.4352300284920244,1.0736124038052115
2.189646841,26.755424754550173,-0.31676923917879185,0.9837587754093351
2.237745071,27.08965261462655,-0.27248827994426494,0.9096875587529374
2.2858433,27.469977977204227,-0.20617349721089712,0.8602366028110651
2.333941529,27.970092800071054,-0.1336491532016882,0.8333016147992879
2.382039862,28.459727525098415,-0.04240424941929208,0.8293034439323766
2.430138091,28.757196719169585,0.0768837533414493,0.8398249239042364
2.478236321,29.10301489161513,0.13517191410303092,0.8867507220831722
2.526334654,29.50672128861309,0.22632245876069768,0.9149483478685085
2.574432883,29.753548583539978,0.19542894210818595,0.9574551249956507
2.622531112,30.193617837729533,0.37525854376800394,1.0222674401515774
2.670629341,30.58528043161072,0.38482288209275645,1.1588362441247693
2.718727675,30.86225954385419,0.34025123140544944,1.2962470676583127
2.766825904,31.21385546032474,0.39478711394948945,1.4206109531518976
2.814924133,31.400326049999748,0.47435127178456565,1.4300802849344902
2.863022466,31.63998923364522,0.5578996232782675,1.4412330780638658
2.911120696,31.9456994227479,0.6309096572749876,1.4605926005389336
2.959218925,32.261341136353224,0.6463172175645536,1.4555422901249928
3.007317258,32.57794228079449,0.6064896728334763,1.4479668084479038
3.055415487,32.85299349648234,0.6547790782958202,1.4709036335956556
3.103513716,33.14270123693199,0.6550330750575986,1.4993116283151058
3.15161205,33.37429309986361,0.7450018809417502,1.4818459333157166
3.199710279,33.64254863013182,0.6981233210405836,1.503941041451459
3.247808508,33.906644358740074,0.7632889775283638,1.4721661735581357
3.295906737,34.113165901048326,0.7424863624215293,1.4614342643325846
3.344005071,34.2931408185808,0.7304758188590436,1.4462833006606508
3.3921033,34.565587295039435,0.8073574847431791,1.466694970922486
3.440201633,34.812031760556536,0.7226387614498831,1.440601646068437
3.488299862,35.07246007285473,0.7406377469865971,1.413877087949703
3.536398091,35.27721246554468,0.6734459153149372,1.3602175392452505
3.584496425,35.55077545830722,0.6907486086395662,1.3368598033180703
3.632594654,35.825358293878054,0.7181330571393247,1.3488542906286871
3.680692883,35.99334072155019,0.6637311599637572,1.3499064385779218
3.728791216,36.18614769362463,0.6253900108675565,1.3661095523991216
3.776889446,36.41858249776969,0.624484571737736,1.3267592177512204
3.824987675,36.60126410947725,0.6003204305673348,1.2756248277853293
3.873086008,36.80515785090875,0.680588631704694,1.2617364439592427
3.921184237,36.93999581227313,0.6757373998412697,1.3015076375695929
3.969282466,37.09751132167515,0.718676174360328,1.3315990688759798
4.0173808,37.26400880715601,0.7290771607935265,1.408195609943317
4.065479029,37.438232381434894,0.7799909725328932,1.4172440825791757
4.113577258,37.65943936945156,0.7918258217405336,1.4315532948799106
4.161675591,37.76772674021504,0.8537509858208605,1.3850482517764084
4.209773821,37.88923104654253,0.8248117905002473,1.3124500418610645
4.257872154,38.04463028041284,0.8309289211659501,1.2400621042487996
4.305970383,38.25601291390273,0.7947659849709029,1.1811418158794713
4.354068612,38.48239477521514,0.7421965500906652,1.1510503845730848
4.402166946,38.644373745310865,0.7857496768238813,1.1428436123178385
4.450265175,38.845982632407775,0.7460996392627521,1.1156981944102629
4.498363508,39.01260748596077,0.7964594298342196,1.1213798055096194
4.546461737,39.18291476295347,0.7442335280281601,1.1129626219162936
4.594559966,39.44482672270681,0.7757638221272255,1.099495127909027
4.6426583,39.63369506415724,0.7569097307330288,1.0940239464046109
4.690756529,39.87720444375416,0.7647374265921999,1.0984429677760188
4.738854862,40.03761667558569,0.8302929924194888,1.0864484545304205
4.786953091,40.21570680302379,0.7545337859779109,1.0811877145431128
4.835051425,40.48792960161667,0.8490359268169668,1.0719287924410787
4.883149654,40.62614959970005,0.7687767177074033,1.0782416802952222
4.931247987,40.76019682985739,0.7203390299768424,1.0121666429001182
4.979346216,40.81923825796464,0.6998781929848185,0.9879672383858419
5.027444446,40.8969809998976,0.7232709645157643,0.9004285236005571
5.075542779,41.09247669943652,0.8336961574953303,0.8960094926741566
5.123641008,41.17444327023236,0.7819668795686309,0.8854880127022969
5.171739341,41.29300849550367,0.8025099517375508,0.9242071405673682
5.219837571,41.43231473760621,0.837501794499786,0.9471439661919946
5.267935904,41.48498462411215,0.8544367068462286,0.9736581517448855
5.316034133,41.56378040823588,0.8729230446620582,0.9574550729586596
5.364132466,41.70963122381622,0.8911776384624726,0.9772354975900374
5.412230696,41.87714440934627,0.8463055077189506,0.9673453064523299
5.460329029,41.96372844603114,0.8569988872170881,0.9976472331551748
5.508427258,42.08802514201608,0.8504484421689716,0.9881779013725821
5.556525591,42.272905581120234,0.9248132170586905,1.0172172485666258
5.604623821,42.370741460767704,0.8830940328302465,0.9726061715815562
5.652722154,42.50480764269184,0.9541399509578432,0.9745000420011041
5.700820383,42.56402586508618,0.9825714669856435,0.9547196601396946
5.748918716,42.6002853634557,1.0415854408295573,0.9469337481118064
5.79701705,42.7760307046946,1.0802761263464906,0.9433564372272537
5.845115279,42.91201737945469,1.0807129383385203,0.9620846708993962
5.893213612,43.02642687633238,1.0198299356574119,0.9145274786186006
5.941311841,43.12023232138747,1.1368548178914257,0.9170526338250198
5.989410175,43.172408888406856,1.0639464354896304,0.8705475897546432
6.037508404,43.37556153768014,1.1224108855429245,0.8976930076622193
6.085606737,43.465217808698206,1.0314394442313093,0.8869610752316859
6.133704966,43.58476277244512,1.0043529309344847,0.8779126025958274
6.1818033,43.66374234698037,0.964322603258796,0.8522401353411915
6.229901633,43.7748162575859,0.9523445766437774,0.8250946587386595
6.277999862,43.9285729411592,0.9604671679938735,0.8131001714280428
6.326098196,43.99133533463154,0.9802999501112413,0.7983700671822394
6.374196425,44.12894266120051,0.929021997377656,0.7798522634058955
6.422294758,44.13810822660248,1.0086912311221155,0.7998431183880719
6.470393091,44.122624665920334,0.9802986043231334,0.7857443054954035
6.518491321,44.22059195376585,1.0691591995464191,0.8044725395569208
6.566589654,44.27245912127517,1.0041723904662296,0.7790105031868335
6.614687883,44.321023174514494,1.0409528835658812,0.7169337741106159
6.662786216,44.425213948142364,1.0438620188824475,0.6308678817333355
6.71088455,44.471011165310216,1.0547036909604013,0.5519566093412971
6.758982779,44.50870955833096,1.1344394020533637,0.5176565852723308
6.807081112,44.61648754907295,1.1049845772645417,0.5041890621450864
6.855179446,44.68992638605225,1.083189092886316,0.45642144107502336
6.903277675,44.74974849154703,1.1080245653569212,0.4292760231674478
6.951376008,44.78243480318723,0.9922746815112278,0.3455248620942989
6.999474341,44.90666884585615,0.9928467132322043,0.2596694026390083
7.047572571,44.96819703342713,0.9130408375971379,0.10500365018398958
7.095670904,45.21989707768003,0.9294488808812238,0.012835285385691064
7.143769237,45.43800428306265,0.8259148568497325,-0.04082437934367841
7.191867466,45.56200613437053,0.8038338229534276,-0.030092470118127386
7.2399658,45.68125434142836,0.8649479201842306,-0.0296716100115821
7.288064133,45.72340988593437,0.8332437550130792,-0.06439256893606765
7.336162362,45.82276256356412,0.8035486495688283,-0.09048583737016153
7.384260696,45.82272628801479,0.7822577428429385,-0.12520679701652226
7.432359029,45.823693076874434,0.7504539020155571,-0.2314739670187173
7.480457258,45.90119535216241,0.7709728995688843,-0.27229730753136483
7.528555591,45.87179488401161,0.6416019847195717,-0.3337428823457611
7.576653821,45.85433124255127,0.5828285448814091,-0.3998177782447174
7.624752154,45.9396145976491,0.4560086397926979,-0.5022972070749142
7.672850487,46.042213573214795,0.3832085544519973,-0.5887839601427692
7.720948821,46.18651804722493,0.3622367365633533,-0.6285552405749307
7.76904705,46.2822426226415,0.3493562822533903,-0.5887840469645804
7.817145383,46.316378642692264,0.29684567741483064,-0.49051321484355537
7.865243716,46.39974968757362,0.36817725589517136,-0.38992765659935863
7.913341946,46.362597208784734,0.295311592278749,-0.34005583984003795
7.961440279,46.44394129587112,0.3935369204183722,-0.2994428413889674
8.009538612,46.52586604076928,0.41910570469410696,-0.27398080501888017
8.057636841,46.57373408321888,0.42082752296853304,-0.2603028811185707
8.105735175,46.67393891796999,0.4581173263700945,-0.22558192147221123
8.153833508,46.69337008598928,0.4997584029964611,-0.24283718575767693
8.201931737,46.69241754918861,0.5569714900128002,-0.2300009801508358
8.250030071,46.621561396710376,0.572361240145525,-0.2727182804075382
8.298128404,46.62232697218319,0.555696505537067,-0.27650602124608276
8.346226633,46.635548951210104,0.45420242312217884,-0.30743917211361793
8.394324966,46.790346702954146,0.3270214362070926,-0.27124520332126595
8.4424233,46.951483940647314,0.3906817283336629,-0.22158371165338614
8.490521529,46.9760360378983,0.44474912963802626,-0.16497814955563378
8.538619862,46.94667636292557,0.5774254693336347,-0.09869268439194616
8.586718196,46.94552853727624,0.5252694757708287,-0.04019312812459212
8.634816529,46.83888781801734,0.4458135666428564,-0.07449322635850368
8.682914758,47.013489156752755,0.34449337840915545,-0.19401723196778745
8.731013091,47.23638854223933,0.35670235439636483,-0.23989098145872442
8.779111425,47.27797943838648,0.3499254600435311,-0.1700282014666783
8.827209654,47.331414032905,0.31888955206131625,-0.03829927735022928
8.875307987,47.31297668148961,0.3959124214946375,0.12267971168447128
8.923406321,47.294214096845735,0.31798278249597073,0.2140063570003693
8.97150455,47.3741845002948,0.28935469626401905,0.3042806560178078
9.019602883,47.3485749775999,0.34170715787574085,0.3082788268847189
9.067701216,47.270713514961656,0.32297424235508476,0.21926691989754926
9.115799446,47.26178423928258,0.3549081506251446,0.11257911254563593
9.163897779,47.2942730168005,0.3325145222088247,0.02988010577562915
9.211996112,47.321240942428126,0.29492777318593477,0.02777580532716341
9.260094341,47.19373223523555,0.08968572587750226,0.10121573332184111
9.308192675,47.25172021739994,0.0951524770212589,0.17381410021206495
9.356291008,47.30495318467496,0.16520183745936248,0.1531919554644653
9.404389237,47.36600119318438,0.34922980533005876,0.0721765615333344
9.452487571,47.4625515404311,0.5674236080054317,0.12667794365113183
9.500585904,47.405347969302056,0.5342645986462562,0.20558921440254346
9.548684133,47.33323260344407,0.6380953925908958,0.30869971389547596
9.596782466,47.27701236784594,0.5461027926856503,0.3587820652489894
9.6448808,47.25251849228106,0.49102819814472054,0.3451041114893273
9.692979029,47.27645312385849,0.45237866677307487,0.26998074434479513
9.741077362,47.27467406661588,0.4439327546345858,0.14246013213529257
9.789175696,47.308711499757216,0.4178855685546742,0.035982521871514586
9.837273925,47.487262906015914,0.44450126939892526,-0.00441996142347665
9.885372258,47.57580114584393,0.5119610205697109,0.04040163889016953
9.933470591,47.53122778582694,0.5442575718075219,0.08859011965768293
9.981568821,47.493046460286784,0.7190848937154661,0.146458257174444
10.02966715,47.45927699108425,0.7938385712274658,0.15150857808837714
10.07776549,47.44436772501479,0.9316424822075527,0.2005387874002185
10.12586372,47.44503352299422,0.9552895691438245,0.2514627510837097
10.17396205,47.516248199519055,1.040520014974437,0.3408955183367374
10.22206038,47.54201251290552,1.022909279531306,0.4168607594333328
10.27015861,47.60709789429903,0.9546139552430221,0.4351681349787171
10.31825695,47.668487465941304,0.9042775002794986,0.4543172726315444
10.36635528,47.62065503001991,0.8547741986360097,0.3966594425578365
10.41445351,47.635897672463194,0.8747733069070612,0.353521377439657
10.46255184,47.67581756814515,0.8211844946717384,0.3907674931137377
10.51065018,47.66319456135494,0.8800775056961463,0.42548845709134564
10.5587484,47.66265329901133,0.8296943450130185,0.4713620988086175
10.60684674,47.674676332508014,0.8954462112017282,0.5105020930605081
10.65494507,47.76422463058536,0.9682703620157892,0.5826795932489115
10.7030433,47.788900311531656,1.036963488031734,0.6394955838415011
10.75114163,47.886008277216646,1.1109701048342537,0.7282970575213397
10.79923997,47.887574868162574,1.1338440046732206,0.8168881218368977
10.8473382,47.93779331035652,1.118532774271532,0.8558175966954736
10.89543653,48.068516617165805,1.2220932039855936,0.9136858545246416
10.94353486,48.11261751299413,1.2430146552821175,0.9441982096834293
10.99163309,48.15524549676929,1.3485459502522552,0.9473546536775038
11.03973143,48.2379269334059,1.4653643541589108,0.9319932577369036
11.08782976,48.233598762357516,1.4780467461785043,0.9402000293096504
11.13592799,48.21983126996628,1.46729046384218,0.9389374516803286
11.18402632,48.27020393201398,1.4048093071980707,0.9435669123463458
11.23212465,48.3003304052993,1.3026322854433536,0.9187361685718929
11.28022288,48.336448879806554,1.2672622703940097,0.9206300349358189
11.32832122,48.32512960721305,1.1231354403765925,0.877071010382086
11.37641945,48.38596439855433,1.101952044553408,0.8210967393681424
11.42451778,48.298252866877,1.0447155867352573,0.7926886849956131
11.47261611,48.23992104708581,0.9777694418952787,0.7731186919356584
11.52071434,48.20850915587135,0.941473358693244,0.7874279045338927
11.56881268,48.13605814706717,0.9069153383303982,0.7884800549112504
11.61691101,48.090036183527886,0.9182301375244345,0.8101543487712425
11.66500924,48.14665489331437,0.845403233194115,0.8457169503583869
11.71310757,48.142787239142756,0.8423277964012804,0.8949575772319449
11.7612059,48.136564849143234,0.8169380317644124,0.9622951873729304
11.80930413,48.080606260947754,0.8232743878084499,1.0031185287343258
11.85740247,48.06018271069156,0.801378084197891,0.983127670842776
11.9055008,48.09921050239349,0.8325567073697446,0.9652411179075109
11.95359903,48.095499714755306,0.81005727884892,0.9458815954324434
12.00169736,48.078730815729216,0.8459274464350235,0.9606116984532477
12.0497957,47.98920111570823,0.8035585425736803,0.9683976116142601
12.09789393,47.975116957717816,0.7733436732969199,0.9713436260305924
12.14599226,47.82045553777509,0.7539236561492388,0.9338870800381286
12.19409005,47.87868242478398,0.7322842434825779,0.8556079866311039
12.24218828,47.97491304932634,0.7631804434990673,0.7846932107747775
12.29028661,47.9638363890177,0.7142374544532388,0.7834306305204576
12.33838494,47.977785758156394,0.7241115002909189,0.8105761054298651
12.38648317,47.932378532821396,0.6746418499892779,0.8114178238226815
12.43458151,47.95087743109462,0.6226690486358489,0.8025797606863875
12.48267984,47.91911525207286,0.6565259180467024,0.7722778358735413
12.53077807,47.96584618955549,0.6460435044907124,0.758599911688857
12.5788764,48.00264498229184,0.695428428574914,0.7790116248125343
12.62697463,47.96470201184686,0.6506555123216218,0.8181515295519931
12.67507296,47.95964222678387,0.7160191023502845,0.8741259169408442
12.7231713,47.89580729997901,0.706253947579553,0.8743363470203117
12.77126963,47.90161487148811,0.743615986865452,0.8604479640604744
12.81936786,47.94673887220271,0.7761162772098713,0.8524516394476331
12.86746619,48.00106111820063,0.7706933147653241,0.8838057159626284
12.91556453,47.970919831642945,0.7556472191411256,0.9094781864197612
12.96366276,47.90590280320217,0.7809497569831916,0.9298898571059713
13.01176109,47.89968429793722,0.8047135631230723,0.9378861983437999
13.05985942,47.9004002331766,0.8028706091765497,0.9355714680110668
13.10795765,47.9241460031887,0.8440485341073639,0.9425156450521176
13.15605598,47.876995201418495,0.8427513251912788,0.9614543483860235
13.20415432,47.828308044074646,0.7722929310415295,0.9622960687038384
13.25225265,47.83514739782612,0.8307984552889834,0.9433573653699325
13.30035088,47.80160306577816,0.8304985233930939,0.9366236182262996
13.34844921,47.82346044244299,0.8017733915153737,0.9374653383691146
13.39654755,47.96361233628989,0.7432319340794252,0.9402009294622968
13.44464588,47.97097517832672,0.7109449348489795,0.9136867455631543
13.49274411,47.999097049795324,0.7359603520169028,0.889487340545753
13.54084244,47.93738781113052,0.7474470976074561,0.8421405841400701
13.58894078,47.88309019349889,0.7293964324112222,0.8356172519778726
13.63703911,47.83195864439956,0.723777705114745,0.8465596140767057
13.68513734,47.863223750178,0.6661502444875117,0.8774927655873654
13.73323567,47.888886561867196,0.5982840294820251,0.8955897488603038
13.78133401,47.90149056015609,0.5116934313854139,0.9223143686533666
