Time (s),Roll (°),Pitch (°),Yaw (°)
0.032853441,0.7719757718012514,0.015147504740860684,0.0753324861728406
0.082853441,1.6480002812026346,0.29568957713348,0.037488763863982734
0.132853441,2.348438934947041,0.6228311079889115,-0.002104956960347147
0.182853441,3.0885535624683373,0.8596955612963013,-0.0377611804659635
0.232853441,3.9806410204316798,1.0821838690574563,-0.11322987226121678
0.282853441,4.825981241604493,1.0328090747271266,-0.17513607622046323
0.332853441,5.524962071560568,0.9418622875599387,-0.13357360672245258
0.382853441,6.02160142046548,0.7988298617355766,-0.04935491965693749
0.432853441,6.494008411659518,0.6688681937038278,0.033113766228851815
0.482853441,6.847002277038903,0.45301342092279284,0.09501997018809825
0.532853441,7.3204734600824555,0.27088691189552305,0.13548868895236124
0.582853441,7.900480945784686,0.15198379230515777,0.12301994783653267
0.632853441,8.523147014468032,0.11095491755381023,0.12695744483725463
0.682853441,9.058972887200902,0.08671397612031943,0.13680118750664974
0.732853441,9.59864149354053,0.08402059660139669,0.1497074275838505
0.782853441,10.113241283526367,0.02903801914472188,0.1667699151465678
0.832853441,10.643015179735924,0.02064596358373474,0.16830116401748782
0.882853441,11.149572766250351,0.021125781283809132,0.19739489105608382
0.932853441,11.623998968832591,0.040731167383966586,0.21423862846918684
0.982853441,12.095269310743957,0.02882164857671706,0.23108236588228986
1.032853441,12.593014762991563,0.053093735742335425,0.23917611003334813
1.082853441,13.066192072125874,0.05703044978945411,0.2516448511491766
1.132853441,13.51616114675628,0.08610598171305406,0.2844573253769254
1.182853441,13.943414729480729,0.08485486577828089,0.29998856323306383
1.232853441,14.38839306689688,0.09905251259451056,0.2894885707851864
1.282853441,14.802691722857038,0.12402636357038377,0.2995510629367
1.332853441,15.219747208672432,0.16022083191949751,0.30305106030855394
1.382853441,15.654859908798512,0.19625360233523864,0.30239481078045416
1.432853441,16.073552861126323,0.21913197704686513,0.3008635619095341
1.482853441,16.456408345527784,0.25738066541798826,0.2890510712396837
1.532853441,16.83813609350175,0.30965264942780363,0.274613581455904
1.582853441,17.195750206107604,0.34508313378907435,0.2523010983381762
1.632853441,17.593022245267868,0.39900486650339667,0.2752698319018822
1.682853441,17.9919660201847,0.44951803949590247,0.26061359330347983
1.732853441,18.35875513057749,0.5020707723953717,0.2687073374545381
1.782853441,18.746234334613224,0.5495461553810917,0.24726985359454628
1.832853441,19.14536769958451,0.5944296447523421,0.2468323539229929
1.882853441,19.509545866712603,0.641177584277101,0.2656448400040471
1.932853441,19.856429417122794,0.6651769931927278,0.2398323598467808
1.982853441,20.174098090260813,0.7083951257517214,0.23917611031868105
2.032853441,20.46846311476951,0.7197270157424348,0.2238636212771654
2.082853441,20.775792656040117,0.7539444701186189,0.2048323850493616
2.132853441,21.065484586788745,0.7950409191879476,0.19695739104791768
2.182853441,21.345309556389402,0.8068035854641591,0.20089488804863964
2.232853441,21.658030944168345,0.8169165213904584,0.19476989256553248
2.282853441,21.946981128978482,0.8377519516341337,0.21030113042167078
2.332853441,22.21237788573757,0.8737850703947583,0.2070198828642508
2.382853441,22.482583459164232,0.9295250342092154,0.2008948873811437
2.432853441,22.748361116153472,0.9334337798145325,0.21423862775757302
2.482853441,23.04174180834918,0.9376995640199842,0.19870738990143455
2.532853441,23.314717079235052,0.971114754744207,0.18536364952500523
2.582853441,23.569402289004394,1.0106799854594382,0.17880115441303007
2.632853441,23.84390434127575,1.0157817898548889,0.1783636547414767
2.682853441,24.126527520368693,1.01786449095786,0.1715824101473831
2.732853441,24.392406340968588,1.0281376166693272,0.1571449203636033
2.782853441,24.611723588071854,1.0507416020237337,0.14336368102580183
2.832853441,24.835015109140187,1.0737510070475946,0.13745743568944419
2.882853441,25.061332728559556,1.1108225609602351,0.12717619338831632
2.932853441,25.291678114477413,1.1401075188817376,0.1249886950726619
2.982853441,25.49765258854056,1.13766930348246,0.1370199358921267
3.032853441,25.73473910372776,1.1830501446227848,0.13242618944523793
3.082853441,25.92079153902041,1.1971319574787411,0.14051993359629625
3.132853441,26.131275734801285,1.2078293234032667,0.1413949329391165
3.182853441,26.35057961030468,1.2279278391942114,0.1352699374560094
3.232853441,26.523513434931093,1.2478014242284827,0.12105119782184394
3.282853441,26.722894173934936,1.2814695930104545,0.10880120685562975
3.332853441,26.93157853821727,1.2977431612594696,0.11514495182085538
3.382853441,27.125879314013055,1.3029811668210018,0.1234574454540321
3.432853441,27.304270654401698,1.3140474799837085,0.11908244882157734
3.482853441,27.494307829855092,1.3356185190533585,0.11842619929347757
3.532853441,27.693420509610213,1.3600029066453379,0.10989495551355133
3.582853441,27.89412468171581,1.387543979382186,0.09261371913907604
3.632853441,28.067876663798973,1.4156061037780159,0.06964498557537015
3.682853441,28.207404517068394,1.4228017238456512,0.06964498557537015
3.732853441,28.38011885229388,1.45476824592675,0.06351999009226299
3.782853441,28.527913856687867,1.4679550920687048,0.05017624971583367
3.832853441,28.702122313426948,1.4999575624273587,0.050394999551553056
3.882853441,28.832291546420898,1.5140912607181103,0.05389499692340701
3.932853441,29.02510603988336,1.5452432736474015,0.052363748052486996
3.982853441,29.196473825487278,1.549914390616414,0.05345749721031422
4.032853441,29.336489822269918,1.5768758597905603,0.04777000135607508
4.082853441,29.443801433988682,1.6200073835239466,0.03180126320357292
4.132853441,29.577907416929513,1.6446975394540881,0.02852001564615297
4.182853441,29.744768250997552,1.6558760060964748,0.03398876168595806
4.232853441,29.89562779912174,1.6751607648925135,-0.0003549635919556024
4.282853441,30.058262020389083,1.688486082820852,-0.04782367908236116
4.332853441,30.28881600614813,1.7030455182841255,-0.11847987828322129
4.332853441,30.414146691799328,1.718560242262778,-0.11847987828322129
4.432853441,30.98811592596285,1.949395020774536,-0.459729618823256
4.482853441,31.269345992531033,2.0347688293001522,-0.5354170634409715
4.532853441,31.383451032910372,2.0451807567409652,-0.5271045698077946
4.582853441,31.484769605555808,2.049810699695808,-0.5599170440355433
4.632853441,31.627576911322762,2.1031038799705994,-0.5680107881866016
4.682853441,31.73547253061948,2.08906686740356,-0.5721670350017575
4.732853441,31.840781487892006,2.0221456348367393,-0.49516709482059323
4.782853441,31.943368960105488,1.9812897834604222,-0.4144484047860211
4.832853441,32.01282689131719,1.9858019982742035,-0.37769843321091096
4.882853441,32.06568989111154,1.9183180681237948,-0.3037609897729213
4.932853441,32.09947204428411,1.7345707949380387,-0.1976673198889074
4.982853441,32.18782888808562,1.680631917271055,-0.12110488002416049
5.032853441,32.210443866609424,1.7387269182654432,-0.08544865651854364
5.082853441,32.22601327255852,1.7540970889992298,-0.004729966483972878
5.132853441,32.29169440383683,1.6789726433195484,0.007082524185877483
5.182853441,32.40813547913734,1.6728591850175951,-0.0014487195940487592
5.232853441,32.44546813436579,1.6041515553657606,0.051707489094935666
5.282853441,32.52883956180351,1.5861855436203638,0.0705199751759901
5.332853441,32.570476941786055,1.5468540134107172,0.0983012040012074
5.382853441,32.56706385410204,1.4972124104532467,0.16020740796045363
5.432853441,32.63437610412684,1.4902979719112928,0.1858011379681055
5.482853441,32.732610957130795,1.436100415676023,0.22823860537740115
5.532853441,32.779998151971206,1.3895836252204457,0.2593010810896783
5.582853441,32.83858881570199,1.3832954758711582,0.3019572986571827
5.632853441,32.867249529379094,1.3469729333822622,0.31792603680968484
5.682853441,32.96698134061468,1.3210275240559217,0.35467600838479496
5.732853441,33.00323258073297,1.24972587899668,0.379613490616452
5.782853441,33.07525986239866,1.2643602306712125,0.39186348158266643
5.832853441,33.121288784817935,1.2511901315062566,0.4080509698847829
5.882853441,33.17739928946246,1.228722737231762,0.3942697305469814
5.932853441,33.23516378118666,1.248017211258358,0.39798847773326934
5.982853441,33.22984783290447,1.264655572421641,0.4279572053760521
6.032853441,33.21752875068501,1.2305295192564334,0.468207173982107
6.082853441,33.34198324315716,1.1949179566389234,0.46055092945991677
6.132853441,33.48444567327123,1.1874639768987532,0.482644662430895
6.182853441,33.52904941121344,1.1175168845771184,0.5099883909568836
6.232853441,33.647623994141156,1.1078162148206385,0.5360196212608993
6.282853441,33.720884924799435,1.019912080098206,0.6009883219633213
6.332853441,33.76807656153746,0.912026045058957,0.6666132704188186
6.382853441,33.774887377591426,0.8767313564543701,0.6849882562035088
6.432853441,33.726409639301245,0.8793076345598875,0.6738320146446449
6.482853441,33.742669206913945,0.892874887440827,0.6642070221219994
6.532853441,33.846330573837264,0.8585959061478473,0.6488945330804835
6.582853441,33.88653901344799,0.8234580256507877,0.6832382583583971
6.632853441,33.865355317926415,0.8274181783531235,0.718456981547596
6.682853441,33.91470674936661,0.8713370869730871,0.7427382133332748
6.732853441,33.94476900198636,0.8411953252090298,0.6937382494569588
6.782853441,34.030471044477345,0.8591671831955113,0.6572070280400568
6.832853441,34.044650659399736,0.8774212228032764,0.6679257699700527
6.882853441,34.04959694885131,0.8026182982950251,0.7101444872497876
6.932853441,34.147806160467,0.810381267666983,0.7108007367778874
6.982853441,34.15645594014863,0.8327018724195138,0.7315819715268926
7.032853441,34.12810376894356,0.8301592403460663,0.7886756775345917
7.082853441,34.16693254164508,0.8513775754117207,0.8085819130229961
7.132853441,34.2066893326471,0.8102308233983244,0.8096756621808233
7.182853441,34.22972242799252,0.8209597406020994,0.8265193995939263
7.232853441,34.19779853227013,0.7941712850062227,0.8190819052213504
7.282853441,34.264444552567504,0.8149240100985922,0.8230194022220724
7.332853441,34.31107817007284,0.758681849756541,0.8162381576279788
7.382853441,34.33683430795043,0.7488456092987812,0.8177694064988988
7.432853441,34.35210850605102,0.7835044438727764,0.8322068962826785
7.482853441,34.341613166945564,0.7688561616632116,0.8866756058636193
7.532853441,34.318036491320996,0.7600745910349923,0.8928006013467265
7.582853441,34.358549496279906,0.7795678894875613,0.9024255938693719
7.632853441,34.364951199714646,0.7464355792263595,0.8803318608983938
7.682853441,34.394031693982896,0.7324062238404477,0.9041755923877088
7.732853441,34.452875375605224,0.6811788117317303,0.9083318392028648
7.782853441,34.50213106543453,0.669685188962617,0.907675589674765
7.832853441,34.50664665496619,0.7176906830082266,0.9148943345652225
7.882853441,34.510357140329305,0.6786347609331393,0.9028630937457578
7.932853441,34.59730484509941,0.6851059058889528,0.8938943503340988
7.982853441,34.67701092379146,0.6767242228369154,0.8654568710657682
8.032853441,34.699061696194505,0.7013690528809701,0.8376756422405504
8.082853441,34.742871976384464,0.6808141976308351,0.8772693630648793
8.132853441,34.7947249055441,0.6624389165885207,0.8715818672106401
8.182853441,34.83998198779204,0.6949348440715845,0.8989255957366293
8.232853441,34.797073979240416,0.7172830200319897,0.8704881164682992
8.282853441,34.80865301094274,0.7425541776151184,0.8943318479576147
8.332853441,34.81101209156762,0.7303376026166103,0.8497068817164304
8.382853441,34.859103553198885,0.7410577277562871,0.859769373867944
8.432853441,34.837204038951896,0.7057551169149576,0.8783631097993841
8.482853441,34.834281884218235,0.728279272241421,0.8995818435097612
8.532853441,34.875940795511326,0.711281291103496,0.8973943451941068
8.582853441,34.927358533464954,0.6400236121193553,0.9361130654428969
8.632853441,34.920232148272376,0.645853653206104,0.8949880962326552
8.682853441,34.936905654774456,0.7148588170966567,0.8993630928651101
8.732853441,34.937293645145864,0.6411772143312622,0.8925818482710166
8.782853441,35.04293192044809,0.6504316851427594,0.8547381259621583
8.782853441,35.075754604467974,0.6650828152474066,0.8547381259621583
8.882853441,34.91581077878659,0.7752002662338522,0.7558631976339873
8.932853441,34.91677904805985,0.7852143948802524,0.7674569394892152
8.982853441,34.97602156417496,0.709245946709958,0.7151757314044186
9.032853441,35.04023083469639,0.7409172857174335,0.6928632482866904
9.082853441,34.9855246020624,0.7386550028992148,0.726113222802208
9.132853441,34.98300013303092,0.7328819884427944,0.7718319371128878
9.182853441,35.00538226579678,0.7463725672540049,0.7587069468860725
9.232853441,35.031626202363654,0.748724682258494,0.8096756594360683
9.282853441,35.04226037383751,0.7244635845842518,0.8072694113056934
9.332853441,35.071146501428814,0.7595007443652594,0.788675675374254
9.382853441,35.08618417990543,0.7477376707396068,0.7744569357400884
9.432853441,35.14545922291578,0.7216148308840403,0.7731444366841753
9.482853441,35.17366201740308,0.739378119793058,0.778175682759932
9.532853441,35.1189067875401,0.744405141027394,0.7786131824314854
9.582853441,35.13317608160688,0.7861953846010518,0.7727069370951279
9.632853441,35.171706500250416,0.7535916584100257,0.7786131824314856
9.682853441,35.21154837953858,0.7009941413231816,0.7587069469430808
9.732853441,35.22881217714935,0.7523428020601981,0.7587069469430808
9.782853441,35.16666170120391,0.7428133467900296,0.791300673705523
9.832853441,35.238018788980696,0.7342148547386597,0.7687694404381814
9.882853441,35.30977710527481,0.6969670318347436,0.7952381710385614
9.932853441,35.2789392000711,0.6289508022408313,0.7921756732955755
9.982853441,35.28333876374043,0.7207423976759928,0.7661444429915603
10.03285344,35.24778954378829,0.7365082609683543,0.7372694639957705
10.08285344,35.314844654560176,0.7231063193595612,0.7035819891638356
10.13285344,35.385191891972084,0.7088561685346343,0.6915507483443707
10.18285344,35.382749002560985,0.6813294383137081,0.7024882404211162
10.23285344,35.39000608986817,0.7099052880128868,0.7361757152530511
10.28285344,35.36942078498886,0.7211490368502108,0.7468944571830471
10.33285344,35.38598284821117,0.7348370267561098,0.7661444422254731
10.38285344,35.43428748185489,0.690844348243533,0.7490819546627555
10.43285344,35.441122774701434,0.6935563560603708,0.7657069419262444
10.48285344,35.43381453155078,0.6970289086833183,0.7729256868167017
10.53285344,35.465379015661675,0.6882240413494409,0.8037694123707702
10.58285344,35.50324581631296,0.6543744434081129,0.8306756432703778
10.63285344,35.541449563312895,0.6567883842828796,0.8354881395317006
10.68285344,35.538016878781335,0.6483595409492393,0.8540818754631407
10.73285344,35.51623523850632,0.6729935982859295,0.8068319127951993
10.78285344,35.52781325046581,0.7273345290933249,0.7720506898937692
10.83285344,35.50400222998889,0.7263518081089549,0.7081757372894913
10.88285344,35.56145740798734,0.7479318407169856,0.6832382550578339
10.93285344,35.6097213667318,0.7046381698323622,0.6707695139420051
10.98285344,35.652533023214886,0.7348093480899054,0.674925760757161
11.03285344,35.583461012403134,0.752102155364013,0.6410195357956642
11.08285344,35.51378551577286,0.8158252755685913,0.5878633271066807
11.13285344,35.48247044045568,0.7537547600288158,0.5543946024329532
11.18285344,35.61871610637957,0.660838337489997,0.5449883593924261
11.23285344,35.71472125820125,0.5972202201807078,0.5288008710903099
11.28285344,35.70575359747098,0.5554783763048937,0.532519618276598
11.33285344,35.60799972879637,0.431179560640304,0.6635507677222833
11.38285344,35.45220389549768,0.28013791118212694,0.8020194168747863
11.43285344,35.45842498137158,0.327782454123227,0.8424881356390499
11.48285344,35.47052414045011,0.3318135104348089,0.828925646450863
11.53285344,35.54870933676953,0.2567857753560507,0.8291443962865823
11.58285344,35.596693298563366,0.21112482736814892,0.7991756686438001
11.63285344,35.56247767196885,0.20848323386611864,0.7287382222367532
11.68285344,35.56699196863048,0.2183506951237151,0.7346444675731109
11.73285344,35.539045379466266,0.1568483580695383,0.7418632124635681
11.78285344,35.637696527012125,0.2085812615548358,0.7313632200156905
11.83285344,35.636619727797616,0.2378420238111044,0.7188944788998622
11.88285344,35.64076168135188,0.15955461565754714,0.7353007160166016
11.93285344,35.635644089711604,0.06723360232969175,0.7471132066864522
11.98285344,35.561600151796355,0.08437517668057637,0.7298319703119773
12.03285344,35.548222898470605,0.18696801146159606,0.6825820076440342
12.08285344,35.587359084214725,0.1890158453559663,0.6766757623076768
12.13285344,35.653992389082866,0.14785133080469962,0.7079569881781627
12.18285344,35.714806313115034,0.16624110811807655,0.7256757248518667
12.23285344,35.70280276206443,0.18576371330057048,0.7700819409348423
12.28285344,35.67400483743677,0.17201196782950534,0.8116444104328535
12.33285344,35.6652035575902,0.10609176852406367,0.8418318882338445
12.38285344,35.66447872488231,0.025556239674686267,0.8768318612934831
12.43285344,35.623813662532285,0.015725352670926382,0.9019880936718901
12.48285344,35.57946003123084,0.047036676871013386,0.9617068014634996
12.53285344,35.5307852334017,0.02992659842422054,1.0398004950426667
12.58285344,35.50898236381316,-0.033958946327355986,1.1218316859691924
12.63285344,35.48524420541157,-0.09418556953825905,1.1903003837025585
12.68285344,35.496951416883086,-0.09199913842880254,1.2163316140065747
12.73285344,35.492151680660356,-0.12646140933323213,1.255050334255365
12.78285344,35.496814014228704,-0.14376411698061314,1.2749565697437697
12.83285344,35.472856602604324,-0.15658532427122562,1.2736440706878567
12.88285344,35.46060095538885,-0.1766602086902309,1.2596440812004406
12.93285344,35.46279085304887,-0.20350285998957143,1.252425336309983
12.98285344,35.44855208270634,-0.17875476658145856,1.2395190962327827
13.03285344,35.434676532915546,-0.11371297397547746,1.1994878751206828
13.08285344,35.47329812515931,-0.12222763533248332,1.216112862384171
13.13285344,35.538005647540764,-0.15290923426500683,1.236456596833948
13.18285344,35.51647738691234,-0.09904601407209172,1.3171752868685203
13.23285344,35.407635494290425,-0.10011014797313467,1.3946127273374527
13.28285344,35.485329891665174,-0.09345654805441145,1.3473627646695094
13.33285344,35.57721104836638,-0.21243794716858694,1.283925312353001
13.38285344,35.6192098623151,-0.21299261385839544,1.2132691131521396
13.43285344,35.574637522457095,-0.14969496174619773,1.2169878603384277
13.48285344,35.50415977541551,-0.2079275440782502,1.29683154976881
13.53285344,35.57948534244688,-0.2305054310867566,1.3169565340718374
13.58285344,35.61536004707186,-0.27235424497205873,1.3300815242986521
13.63285344,35.55381836085599,-0.3001517463785057,1.3832377329876375
13.68285344,35.547751070156046,-0.24250964475133416,1.4171439579491345
13.73285344,35.47642079938242,-0.2634097002204171,1.4818939111575993
13.78285344,35.49944447681409,-0.23226125287640442,1.5028938960533544
13.83285344,35.56509702479301,-0.24654011581202917,1.49086265523389
13.88285344,35.58533167450192,-0.3011050675817908,1.5120813889442677
13.93285344,35.53595515452668,-0.40018888909989103,1.540081367916235
13.98285344,35.520151139993004,-0.398678608480597,1.4972064001905228
14.03285344,35.54336585805831,-0.3703140275067833,1.4110189644513258
14.08285344,35.536318179690234,-0.4364129158838045,1.3782064902235778
14.13285344,35.58283082960191,-0.4424156783254308,1.3537065082882842
14.18285344,35.64093579896488,-0.42530497122145305,1.3418940176184337
14.23285344,35.64878683041925,-0.44112145329880004,1.3924252298520121
14.28285344,35.6064113702246,-0.5048885702887648,1.4967688985563021
14.33285344,35.5822477824936,-0.5024247673820548,1.5420501125792108
14.38285344,35.56973628950603,-0.49217460802758756,1.5508001058412557
14.43285344,35.57222585734041,-0.5155518101861041,1.5153626324938476
